"Plot9"
"Time (sec)","Velocity1 (mm/sec)"
0,0.902904648594111
0.0166666666666667,-27.6035835131491
0.0333333333333333,-55.78226359027
0.05,-83.2998552153514
0.0666666666666667,-109.833725898297
0.0833333333333333,-135.077196999732
0.1,-158.74470457133
0.116666666666667,-180.576735078694
0.133333333333333,-200.344432448372
0.15,-217.853747983513
0.166666666666667,-232.948982048142
0.183333333333333,-245.515550437638
0.2,-255.481803918328
0.216666666666667,-262.819741242562
0.233333333333333,-267.544487527448
0.25,-269.712462683861
0.266666666666667,-269.418236502087
0.283333333333333,-266.790152641476
0.3,-261.984861276918
0.316666666666667,-255.181244212882
0.333333333333333,-246.573367864039
0.35,-236.363961450985
0.366666666666667,-224.75763739896
0.383333333333333,-211.954864529123
0.4,-198.146730438684
0.416666666666667,-183.510709629803
0.433333333333333,-168.207532954307
0.45,-152.379169344212
0.466666666666667,-136.14785927415
0.483333333333333,-119.61608679278
0.5,-102.867345367879
0.516666666666667,-85.9675410578738
0.533333333333333,-68.9668811938073
0.55,-51.9021131661574
0.566666666666667,-34.7990011547334
0.583333333333333,-17.6749542568712
0.6,-0.539832287625535
0.616666666666667,16.5917318341788
0.633333333333334,33.7166625374916
0.65,50.8215408240432
0.666666666666667,67.8893952440961
0.683333333333334,84.8950689815265
0.700000000000001,101.80258448169
0.716666666666667,118.562654853523
0.733333333333334,135.110426980234
0.750000000000001,151.363566907929
0.766666666666667,167.220821600201
0.783333333333334,182.561208132635
0.800000000000001,197.243986959848
0.816666666666668,211.109565313534
0.833333333333334,223.981446517335
0.850000000000001,235.669289700055
0.866666666666668,245.973073927475
0.883333333333334,254.688276759581
0.900000000000001,261.611903352343
0.916666666666668,266.549004008783
0.933333333333335,269.319663713461
0.950000000000001,269.765596007316
0.966666666666668,267.756494398502
0.983333333333335,263.195511676358
1,256.023708908251
1.01666666666667,246.223281579546
1.03333333333333,233.81947496569
1.05,218.881187004169
1.06666666666667,201.520330017589
1.08333333333333,181.89007663207
1.1,160.182148231896
1.11666666666667,136.623317236781
1.13333333333333,111.471290959956
1.15,85.0101294049787
1.16666666666667,57.5453269978592
1.18333333333333,29.3986633808534
1.2,0.902904648593807
1.21666666666667,-27.60358351315
1.23333333333333,-55.7822635902709
1.25,-83.2998552153516
1.26666666666667,-109.833725898297
1.28333333333333,-135.077196999733
1.3,-158.74470457133
1.31666666666667,-180.576735078694
1.33333333333333,-200.344432448372
1.35,-217.853747983513
1.36666666666667,-232.948982048142
1.38333333333333,-245.515550437637
1.4,-255.481803918328
1.41666666666667,-262.819741242562
1.43333333333333,-267.544487527448
1.45,-269.712462683861
1.46666666666667,-269.418236502088
1.48333333333333,-266.790152641476
1.5,-261.984896374589
1.51666666666667,-255.181244212882
1.53333333333333,-246.573367864039
1.55,-236.363961450985
1.56666666666667,-224.757637398961
1.58333333333333,-211.954864529124
1.6,-198.146730438684
1.61666666666667,-183.510709629804
1.63333333333333,-168.207532954308
1.65,-152.379169344213
1.66666666666667,-136.147859274151
1.68333333333333,-119.616086792781
1.7,-102.867345367881
1.71666666666667,-85.9675410578754
1.73333333333333,-68.9668811938093
1.75,-51.9021131661594
1.76666666666667,-34.7990011547358
1.78333333333333,-17.6749542568733
1.8,-0.541720747528753
1.81666666666667,16.5917318341761
1.83333333333333,33.7166625374888
1.85,50.8215408240404
1.86666666666666,67.8893952440933
1.88333333333333,84.8950689815234
1.9,101.802584481687
1.91666666666666,118.56265485352
1.93333333333333,135.110426980231
1.95,151.363566907926
1.96666666666666,167.220821600197
1.98333333333333,182.561208132632
2,197.243986959845
2.01666666666666,211.10956531353
2.03333333333333,223.981446517332
2.05,235.669289700051
2.06666666666666,245.973073927471
2.08333333333333,254.688276759579
2.1,261.611893032271
2.11666666666666,266.549004008781
2.13333333333333,269.31966371346
2.15,269.765596007317
2.16666666666666,267.756494398503
2.18333333333333,263.195511676361
2.2,256.023708908254
2.21666666666666,246.22328157955
2.23333333333333,233.819474965695
2.25,218.881187004175
2.26666666666666,201.520330017596
2.28333333333333,181.890076632078
2.3,160.182148231905
2.31666666666666,136.623317236791
2.33333333333333,111.471290959965
2.35,85.0101294049881
2.36666666666666,57.5453269978695
2.38333333333333,29.3986633808638
2.4,0.902904648604176
2.41666666666666,-27.6035835131388
2.43333333333333,-55.7822635902605
2.45,-83.2998552153414
2.46666666666666,-109.833725898287
2.48333333333333,-135.077196999723
2.5,-158.744704571322
2.51666666666666,-180.576735078686
2.53333333333333,-200.344432448365
2.55,-217.853747983507
2.56666666666666,-232.948982048136
2.58333333333333,-245.515550437633
2.6,-255.481803918325
2.61666666666666,-262.81974124256
2.63333333333333,-267.544487527446
2.65,-269.712462683861
2.66666666666666,-269.418236502088
2.68333333333333,-266.790152641478
2.7,-261.984892704106
2.71666666666666,-255.181244212885
2.73333333333333,-246.573367864044
2.75,-236.36396145099
2.76666666666666,-224.757637398966
2.78333333333333,-211.954864529129
2.79999999999999,-198.14673043869
2.81666666666666,-183.510709629809
2.83333333333333,-168.207532954314
2.84999999999999,-152.379169344219
2.86666666666666,-136.147859274158
2.88333333333333,-119.616086792788
2.89999999999999,-102.867345367888
2.91666666666666,-85.9675410578821
2.93333333333333,-68.966881193816
2.94999999999999,-51.9021131661663
2.96666666666666,-34.7990011547423
2.98333333333333,-17.6749542568803
2.99999999999999,-0.541732420461214
3.01666666666666,16.5917318341693
3.03333333333333,33.7166625374818
3.04999999999999,50.8215408240336
3.06666666666666,67.8893952440861
3.08333333333333,84.8950689815171
3.09999999999999,101.80258448168
3.11666666666666,118.562654853514
3.13333333333333,135.110426980224
3.14999999999999,151.363566907919
3.16666666666666,167.220821600191
3.18333333333333,182.561208132626
3.19999999999999,197.24398695984
3.21666666666666,211.109565313525
3.23333333333333,223.981446517327
3.24999999999999,235.669289700048
3.26666666666666,245.973073927468
3.28333333333333,254.688276759576
3.29999999999999,261.61188865767
3.31666666666666,266.54900400878
3.33333333333333,269.319663713459
3.34999999999999,269.765596007317
3.36666666666666,267.756494398504
3.38333333333333,263.195511676363
3.39999999999999,256.023708908257
3.41666666666666,246.223281579554
3.43333333333333,233.8194749657
3.44999999999999,218.881187004181
3.46666666666666,201.520330017603
3.48333333333333,181.890076632086
3.49999999999999,160.182148231913
3.51666666666666,136.6233172368
3.53333333333333,111.471290959975
3.54999999999999,85.0101294049983
3.56666666666666,57.5453269978801
3.58333333333333,29.3986633808743
3.59999999999999,0.902904648614914
3.61666666666666,-27.6035835131281
3.63333333333333,-55.7822635902502
3.64999999999999,-83.2998552153311
3.66666666666666,-109.833725898278
3.68333333333333,-135.077196999714
3.69999999999999,-158.744704571312
3.71666666666666,-180.576735078678
3.73333333333332,-200.344432448357
3.74999999999999,-217.8537479835
3.76666666666666,-232.948982048132
3.78333333333332,-245.515550437629
3.79999999999999,-255.481803918321
3.81666666666666,-262.819741242558
3.83333333333332,-267.544487527445
3.84999999999999,-269.712462683861
3.86666666666666,-269.418236502089
3.88333333333332,-266.790152641479
3.89999999999999,-261.984893495293
3.91666666666666,-255.181244212888
3.93333333333332,-246.573367864047
3.94999999999999,-236.363961450994
3.96666666666666,-224.75763739897
3.98333333333332,-211.954864529134
3.99999999999999,-198.146730438696
4.01666666666666,-183.510709629815
4.03333333333332,-168.20753295432
4.04999999999999,-152.379169344225
4.06666666666666,-136.147859274163
4.08333333333332,-119.616086792794
4.09999999999999,-102.867345367894
4.11666666666666,-85.9675410578883
4.13333333333332,-68.9668811938214
4.14999999999999,-51.902113166172
4.16666666666666,-34.799001154748
4.18333333333332,-17.6749542568859
4.19999999999999,-0.541778294786675
4.21666666666666,16.5917318341637
4.23333333333332,33.7166625374769
4.24999999999999,50.8215408240281
4.26666666666666,67.8893952440814
4.28333333333332,84.8950689815114
4.29999999999999,101.802584481675
4.31666666666666,118.562654853509
4.33333333333332,135.11042698022
4.34999999999999,151.363566907914
4.36666666666666,167.220821600187
4.38333333333332,182.561208132621
4.39999999999999,197.243986959835
4.41666666666666,211.109565313521
4.43333333333332,223.981446517324
4.44999999999999,235.669289700044
4.46666666666666,245.973073927466
4.48333333333332,254.688276759574
4.49999999999999,261.611888475115
4.51666666666666,266.549004008779
4.53333333333332,269.319663713459
4.54999999999999,269.765596007317
4.56666666666666,267.756494398505
4.58333333333332,263.195511676364
4.59999999999999,256.023708908259
4.61666666666666,246.223281579557
4.63333333333332,233.819474965703
4.64999999999999,218.881187004184
4.66666666666666,201.520330017606
4.68333333333332,181.89007663209
4.69999999999999,160.182148231919
4.71666666666666,136.623317236805
4.73333333333332,111.47129095998
4.74999999999999,85.0101294050039
4.76666666666666,57.5453269978847
4.78333333333332,29.3986633808808
4.79999999999999,0.902904648620755
4.81666666666665,-27.6035835131234
4.83333333333332,-55.7822635902456
4.84999999999999,-83.2998552153266
4.86666666666665,-109.833725898273
4.88333333333332,-135.07719699971
4.89999999999999,-158.744704571309
4.91666666666665,-180.576735078674
4.93333333333332,-200.344432448355
4.94999999999999,-217.853747983499
4.96666666666665,-232.94898204813
4.98333333333332,-245.515550437627
4.99999999999999,-255.48180391832
5.01666666666665,-262.819741242556
5.03333333333332,-267.544487527445
5.04999999999999,-269.712462683861
5.06666666666665,-269.418236502089
5.08333333333332,-266.790152641479
5.09999999999999,-261.984894398613
5.11666666666665,-255.181244212889
5.13333333333332,-246.573367864048
5.14999999999999,-236.363961450995
5.16666666666665,-224.757637398971
5.18333333333332,-211.954864529135
5.19999999999999,-198.146730438697
5.21666666666665,-183.510709629816
5.23333333333332,-168.207532954321
5.24999999999999,-152.379169344227
5.26666666666665,-136.147859274165
5.28333333333332,-119.616086792795
5.29999999999999,-102.867345367895
5.31666666666665,-85.9675410578894
5.33333333333332,-68.9668811938229
5.34999999999999,-51.9021131661735
5.36666666666665,-34.7990011547495
5.38333333333332,-17.6749542568873
5.39999999999999,-0.541789946350823
5.41666666666665,16.5917318341622
5.43333333333332,33.7166625374754
5.44999999999999,50.8215408240267
5.46666666666665,67.88939524408
5.48333333333332,84.89506898151
5.49999999999999,101.802584481673
5.51666666666665,118.562654853507
5.53333333333332,135.110426980218
5.54999999999999,151.363566907913
5.56666666666665,167.220821600186
5.58333333333332,182.56120813262
5.59999999999999,197.243986959834
5.61666666666665,211.10956531352
5.63333333333332,223.981446517323
5.64999999999999,235.669289700043
5.66666666666665,245.973073927465
5.68333333333332,254.688276759573
5.69999999999999,261.611888514723
5.71666666666665,266.549004008779
5.73333333333332,269.319663713459
5.74999999999998,269.765596007317
5.76666666666665,267.756494398506
5.78333333333332,263.195511676364
5.79999999999998,256.02370890826
5.81666666666665,246.223281579558
5.83333333333332,233.819474965704
5.84999999999998,218.881187004186
5.86666666666665,201.520330017608
5.88333333333332,181.890076632092
5.89999999999998,160.18214823192
5.91666666666665,136.623317236807
5.93333333333332,111.471290959982
5.94999999999998,85.0101294050057
5.96666666666665,57.5453269978869
5.98333333333332,29.3986633808831
5.99999999999998,0.902904648623126
6.01666666666665,-27.6035835131216
6.03333333333332,-55.7822635902433
6.04999999999998,-83.2998552153242
6.06666666666665,-109.833725898272
6.08333333333332,-135.077196999708
6.09999999999998,-158.744704571307
6.11666666666665,-180.576735078671
6.13333333333332,-200.344432448353
6.14999999999998,-217.853747983497
6.16666666666665,-232.948982048128
6.18333333333332,-245.515550437626
6.19999999999998,-255.481803918319
6.21666666666665,-262.819741242556
6.23333333333332,-267.544487527444
6.24999999999998,-269.71246268386
6.26666666666665,-269.418236502089
6.28333333333332,-266.79015264148
6.29999999999998,-261.984892797995
6.31666666666665,-255.181244212889
6.33333333333332,-246.573367864048
6.34999999999998,-236.363961450996
6.36666666666665,-224.757637398972
6.38333333333332,-211.954864529135
6.39999999999998,-198.146730438697
6.41666666666665,-183.510709629817
6.43333333333332,-168.207532954321
6.44999999999998,-152.379169344227
6.46666666666665,-136.147859274166
6.48333333333332,-119.616086792795
6.49999999999998,-102.867345367895
6.51666666666665,-85.9675410578898
6.53333333333332,-68.9668811938222
6.54999999999998,-51.9021131661728
6.56666666666665,-34.7990011547495
6.58333333333332,-17.674954256886
6.59999999999998,-0.54180874304982
6.61666666666665,16.5917318341629
6.63333333333332,33.7166625374768
6.64999999999998,50.8215408240281
6.66666666666665,67.8893952440804
6.68333333333331,84.895068981512
6.69999999999998,101.802584481675
6.71666666666665,118.56265485351
6.73333333333331,135.11042698022
6.74999999999998,151.363566907915
6.76666666666665,167.220821600187
6.78333333333331,182.561208132623
6.79999999999998,197.243986959836
6.81666666666665,211.109565313522
6.83333333333331,223.981446517325
6.84999999999998,235.669289700045
6.86666666666665,245.973073927466
6.88333333333331,254.688276759575
6.89999999999998,261.611889071586
6.91666666666665,266.549004008779
6.93333333333331,269.319663713459
6.94999999999998,269.765596007317
6.96666666666665,267.756494398505
6.98333333333331,263.195511676363
6.99999999999998,256.023708908258
7.01666666666665,246.223281579556
7.03333333333331,233.819474965701
7.04999999999998,218.881187004182
7.06666666666665,201.520330017604
7.08333333333331,181.890076632086
7.09999999999998,160.182148231914
7.11666666666665,136.623317236801
7.13333333333331,111.471290959975
7.14999999999998,85.0101294049984
7.16666666666665,57.5453269978801
7.18333333333331,29.3986633808739
7.19999999999998,0.902904648613853
7.21666666666665,-27.6035835131292
7.23333333333331,-55.7822635902517
7.24999999999998,-83.2998552153332
7.26666666666665,-109.833725898278
7.28333333333331,-135.077196999716
7.29999999999998,-158.744704571315
7.31666666666665,-180.57673507868
7.33333333333331,-200.34443244836
7.34999999999998,-217.853747983503
7.36666666666665,-232.948982048133
7.38333333333331,-245.515550437631
7.39999999999998,-255.481803918323
7.41666666666665,-262.819741242558
7.43333333333331,-267.544487527446
7.44999999999998,-269.712462683861
7.46666666666665,-269.418236502088
7.48333333333331,-266.790152641478
7.49999999999998,-261.984893248615
7.51666666666665,-255.181244212886
7.53333333333331,-246.573367864044
7.54999999999998,-236.363961450991
7.56666666666665,-224.757637398967
7.58333333333331,-211.954864529129
7.59999999999998,-198.14673043869
7.61666666666664,-183.510709629811
7.63333333333331,-168.207532954315
7.64999999999998,-152.37916934422
7.66666666666664,-136.147859274159
7.68333333333331,-119.616086792788
7.69999999999998,-102.867345367886
7.71666666666664,-85.9675410578814
7.73333333333331,-68.9668811938153
7.74999999999998,-51.9021131661646
7.76666666666664,-34.7990011547425
7.78333333333331,-17.6749542568776
7.79999999999998,-0.541801481784806
7.81666666666664,16.5917318341698
7.83333333333331,33.7166625374838
7.84999999999998,50.8215408240351
7.86666666666664,67.8893952440874
7.88333333333331,84.8950689815189
7.89999999999998,101.802584481682
7.91666666666664,118.562654853515
7.93333333333331,135.110426980227
7.94999999999998,151.363566907921
7.96666666666664,167.220821600193
7.98333333333331,182.561208132628
8,197.243986959862
